"ID","X","Y","Elevation","Distance (Segment)","Distance (Total)","Distance 3D (Segment)","Distance 3D (Total)","Slope (Degrees)","Slope (Percent)","Segment Index"
1,395425.284,3872155.129,0.905,0,0,0,0,,,1
2,395425.358,3872155.059,0.905,0.1022,0.1022,0.1022,0.1022,0.1,0.2,1
3,395425.432,3872154.989,0.905,0.1022,0.2043,0.1022,0.2043,0.2,0.3,1
4,395425.507,3872154.919,0.906,0.1022,0.3065,0.1022,0.3065,0.3,0.6,1
5,395425.581,3872154.849,0.907,0.1022,0.4086,0.1022,0.4086,0.4,0.6,1
6,395425.655,3872154.779,0.907,0.1022,0.511,0.1022,0.511,0.4,0.7,1
7,395425.729,3872154.708,0.908,0.1022,0.613,0.1022,0.613,0.5,0.8,1
8,395425.804,3872154.638,0.909,0.1022,0.715,0.1022,0.715,0.4,0.7,1
9,395425.878,3872154.568,0.909,0.1022,0.817,0.1022,0.817,0.3,0.6,1
10,395425.952,3872154.498,0.91,0.1022,0.919,0.1022,0.919,0.2,0.3,1
11,395426.026,3872154.428,0.91,0.1022,1.022,0.1022,1.022,0.1,0.2,1
12,395426.101,3872154.358,0.91,0.1022,1.124,0.1022,1.124,0.1,0.1,1
13,395426.175,3872154.288,0.91,0.1022,1.226,0.1022,1.226,0.0,0.1,1
14,395426.249,3872154.217,0.91,0.1022,1.328,0.1022,1.328,0.1,0.2,1
15,395426.323,3872154.147,0.91,0.1022,1.43,0.1022,1.43,0.2,0.3,1
16,395426.397,3872154.077,0.91,0.1022,1.532,0.1022,1.532,0.1,0.1,1
17,395426.472,3872154.007,0.91,0.1022,1.635,0.1022,1.635,0.0,0.0,1
18,395426.546,3872153.937,0.91,0.1022,1.737,0.1022,1.737,0.1,0.3,1
19,395426.620,3872153.867,0.91,0.1022,1.839,0.1022,1.839,0.2,0.3,1
20,395426.694,3872153.796,0.911,0.1022,1.941,0.1022,1.941,0.3,0.6,1
21,395426.769,3872153.726,0.912,0.1022,2.043,0.1022,2.043,0.5,0.9,1
22,395426.843,3872153.656,0.913,0.1022,2.145,0.1022,2.145,0.8,1.3,1
23,395426.917,3872153.586,0.915,0.1022,2.248,0.1022,2.248,1.0,1.7,1
24,395426.991,3872153.516,0.916,0.1022,2.35,0.1022,2.35,0.9,1.6,1
25,395427.066,3872153.446,0.918,0.1022,2.452,0.1022,2.452,0.8,1.4,1
26,395427.140,3872153.376,0.919,0.1022,2.554,0.1022,2.554,0.8,1.4,1
27,395427.214,3872153.305,0.921,0.1022,2.656,0.1022,2.656,0.8,1.4,1
28,395427.288,3872153.235,0.922,0.1022,2.758,0.1022,2.758,0.8,1.4,1
29,395427.362,3872153.165,0.923,0.1022,2.86,0.1022,2.861,0.7,1.3,1
30,395427.437,3872153.095,0.925,0.1022,2.963,0.1022,2.963,0.6,1.1,1
31,395427.511,3872153.025,0.925,0.1022,3.065,0.1022,3.065,0.5,0.8,1
32,395427.585,3872152.955,0.926,0.1022,3.167,0.1022,3.167,0.4,0.7,1
33,395427.659,3872152.885,0.927,0.1022,3.269,0.1022,3.269,0.6,1.0,1
34,395427.734,3872152.814,0.928,0.1022,3.371,0.1022,3.371,0.5,1.0,1
35,395427.808,3872152.744,0.929,0.1022,3.473,0.1022,3.474,0.5,0.9,1
36,395427.882,3872152.674,0.93,0.1022,3.576,0.1022,3.576,0.5,0.9,1
37,395427.956,3872152.604,0.931,0.1022,3.678,0.1022,3.678,0.5,0.8,1
38,395428.031,3872152.534,0.932,0.1022,3.78,0.1022,3.78,0.5,0.9,1
39,395428.105,3872152.464,0.933,0.1022,3.882,0.1022,3.882,0.5,0.9,1
40,395428.179,3872152.393,0.933,0.1022,3.984,0.1022,3.984,0.5,0.9,1
41,395428.253,3872152.323,0.934,0.1022,4.086,0.1022,4.087,0.5,0.8,1
42,395428.327,3872152.253,0.935,0.1022,4.189,0.1022,4.189,0.4,0.7,1
43,395428.402,3872152.183,0.936,0.1022,4.291,0.1022,4.291,0.4,0.8,1
44,395428.476,3872152.113,0.937,0.1022,4.393,0.1022,4.393,0.5,0.8,1
45,395428.550,3872152.043,0.938,0.1022,4.495,0.1022,4.495,0.5,0.8,1
46,395428.624,3872151.973,0.938,0.1022,4.597,0.1022,4.597,0.3,0.6,1
47,395428.699,3872151.902,0.939,0.1022,4.699,0.1022,4.7,0.2,0.4,1
48,395428.773,3872151.832,0.939,0.1022,4.802,0.1022,4.802,0.1,0.2,1
49,395428.847,3872151.762,0.939,0.1022,4.904,0.1022,4.904,0.0,0.1,1
50,395428.921,3872151.692,0.939,0.1022,5.006,0.1022,5.006,0.0,0.1,1
51,395428.996,3872151.622,0.939,0.1022,5.108,0.1022,5.108,0.0,0.0,1
52,395429.070,3872151.552,0.939,0.1022,5.21,0.1022,5.21,0.0,0.0,1
53,395429.144,3872151.482,0.939,0.1022,5.312,0.1022,5.313,0.0,0.0,1
54,395429.218,3872151.411,0.939,0.1022,5.415,0.1022,5.415,0.1,0.2,1
55,395429.293,3872151.341,0.94,0.1022,5.517,0.1022,5.517,0.5,0.9,1
56,395429.367,3872151.271,0.941,0.1022,5.619,0.1022,5.619,0.8,1.4,1
57,395429.441,3872151.201,0.943,0.1022,5.721,0.1022,5.721,1.0,1.7,1
58,395429.515,3872151.131,0.945,0.1022,5.823,0.1022,5.823,1.1,1.9,1
59,395429.589,3872151.061,0.947,0.1022,5.925,0.1022,5.926,1.3,2.3,1
60,395429.664,3872150.991,0.95,0.1022,6.027,0.1022,6.028,1.5,2.6,1
61,395429.738,3872150.920,0.953,0.1022,6.13,0.1022,6.13,1.5,2.7,1
62,395429.812,3872150.850,0.955,0.1022,6.232,0.1022,6.232,1.5,2.6,1
63,395429.886,3872150.780,0.958,0.1022,6.334,0.1022,6.334,1.4,2.4,1
64,395429.961,3872150.710,0.96,0.1022,6.436,0.1022,6.437,1.4,2.5,1
65,395430.035,3872150.640,0.963,0.1022,6.538,0.1022,6.539,1.3,2.3,1
66,395430.109,3872150.570,0.965,0.1022,6.64,0.1022,6.641,1.3,2.2,1
67,395430.183,3872150.499,0.967,0.1022,6.743,0.1022,6.743,1.1,1.9,1
68,395430.258,3872150.429,0.969,0.1022,6.845,0.1022,6.845,1.1,1.9,1
69,395430.332,3872150.359,0.971,0.1022,6.947,0.1022,6.947,1.1,1.9,1
70,395430.406,3872150.289,0.973,0.1022,7.049,0.1022,7.05,1.1,1.9,1
71,395430.480,3872150.219,0.975,0.1022,7.151,0.1022,7.152,1.1,1.9,1
72,395430.554,3872150.149,0.976,0.1022,7.253,0.1022,7.254,1.0,1.7,1
73,395430.629,3872150.079,0.979,0.1022,7.356,0.1022,7.356,1.2,2.2,1
74,395430.703,3872150.008,0.981,0.1022,7.458,0.1022,7.458,1.3,2.3,1
75,395430.777,3872149.938,0.984,0.1022,7.56,0.1022,7.561,1.4,2.5,1
76,395430.851,3872149.868,0.987,0.1022,7.662,0.1022,7.663,1.7,2.9,1
77,395430.926,3872149.798,0.99,0.1022,7.764,0.1022,7.765,1.9,3.3,1
78,395431.000,3872149.728,0.994,0.1022,7.866,0.1022,7.867,2.3,3.9,1
79,395431.074,3872149.658,0.998,0.1022,7.969,0.1023,7.969,2.4,4.2,1
80,395431.148,3872149.588,1.003,0.1022,8.071,0.1023,8.072,2.5,4.3,1
81,395431.223,3872149.517,1.007,0.1022,8.173,0.1023,8.174,2.6,4.6,1
82,395431.297,3872149.447,1.012,0.1022,8.275,0.1023,8.276,2.6,4.6,1
83,395431.371,3872149.377,1.017,0.1022,8.377,0.1023,8.379,2.8,4.8,1
84,395431.445,3872149.307,1.022,0.1022,8.479,0.1023,8.481,2.8,4.9,1
85,395431.519,3872149.237,1.027,0.1022,8.581,0.1023,8.583,2.7,4.7,1
86,395431.594,3872149.167,1.031,0.1022,8.684,0.1023,8.685,2.5,4.4,1
87,395431.668,3872149.096,1.036,0.1022,8.786,0.1023,8.788,2.5,4.4,1
88,395431.742,3872149.026,1.04,0.1022,8.888,0.1023,8.89,2.6,4.5,1
89,395431.816,3872148.956,1.045,0.1022,8.99,0.1023,8.992,2.6,4.6,1
90,395431.891,3872148.886,1.049,0.1022,9.092,0.1023,9.094,2.4,4.2,1
91,395431.965,3872148.816,1.053,0.1022,9.194,0.1022,9.197,2.2,3.9,1
92,395432.039,3872148.746,1.057,0.1022,9.297,0.1022,9.299,2.2,3.9,1
93,395432.113,3872148.676,1.061,0.1022,9.399,0.1022,9.401,2.4,4.1,1
94,395432.188,3872148.605,1.066,0.1022,9.501,0.1023,9.503,2.5,4.4,1
95,395432.262,3872148.535,1.071,0.1022,9.603,0.1023,9.606,2.5,4.4,1
96,395432.336,3872148.465,1.075,0.1022,9.705,0.1023,9.708,2.5,4.4,1
97,395432.410,3872148.395,1.08,0.1022,9.807,0.1023,9.81,2.6,4.5,1
98,395432.485,3872148.325,1.085,0.1022,9.91,0.1023,9.912,2.8,5.0,1
99,395432.559,3872148.255,1.09,0.1022,10.012,0.1023,10.015,3.1,5.4,1
100,395432.633,3872148.185,1.096,0.1022,10.114,0.1023,10.117,3.2,5.7,1
101,395432.707,3872148.114,1.102,0.1022,10.216,0.1023,10.219,3.4,5.9,1
102,395432.781,3872148.044,1.108,0.1022,10.318,0.1024,10.322,3.6,6.3,1
103,395432.856,3872147.974,1.116,0.1022,10.42,0.1024,10.424,4.0,6.9,1
104,395432.930,3872147.904,1.123,0.1022,10.523,0.1025,10.527,4.4,7.6,1
105,395433.004,3872147.834,1.132,0.1022,10.625,0.1025,10.629,4.7,8.2,1
106,395433.078,3872147.764,1.141,0.1022,10.727,0.1026,10.732,5.1,8.9,1
107,395433.153,3872147.693,1.151,0.1022,10.829,0.1027,10.834,5.7,10.0,1
108,395433.227,3872147.623,1.162,0.1022,10.931,0.1028,10.937,6.3,11.0,1
109,395433.301,3872147.553,1.175,0.1022,11.033,0.1029,11.04,6.9,12.0,1
110,395433.375,3872147.483,1.188,0.1022,11.136,0.103,11.143,7.3,12.7,1
111,395433.450,3872147.413,1.201,0.1022,11.238,0.103,11.246,7.5,13.2,1
112,395433.524,3872147.343,1.215,0.1022,11.34,0.1032,11.349,8.0,14.1,1
113,395433.598,3872147.273,1.231,0.1022,11.442,0.1033,11.453,8.4,14.7,1
114,395433.672,3872147.202,1.246,0.1022,11.544,0.1033,11.556,8.6,15.1,1
115,395433.746,3872147.132,1.262,0.1022,11.646,0.1034,11.659,8.8,15.4,1
116,395433.821,3872147.062,1.278,0.1022,11.748,0.1034,11.763,8.8,15.6,1
117,395433.895,3872146.992,1.294,0.1022,11.851,0.1035,11.866,9.1,16.1,1
118,395433.969,3872146.922,1.31,0.1022,11.953,0.1034,11.969,8.9,15.7,1
119,395434.043,3872146.852,1.326,0.1022,12.055,0.1034,12.073,9.0,15.8,1
120,395434.118,3872146.782,1.343,0.1022,12.157,0.1035,12.176,9.2,16.2,1
121,395434.192,3872146.711,1.36,0.1022,12.259,0.1036,12.28,9.6,16.9,1
122,395434.266,3872146.641,1.378,0.1022,12.361,0.1037,12.384,9.9,17.4,1
123,395434.340,3872146.571,1.396,0.1022,12.464,0.1037,12.487,10.0,17.6,1
124,395434.415,3872146.501,1.414,0.1022,12.566,0.1038,12.591,10.1,17.8,1
125,395434.489,3872146.431,1.432,0.1022,12.668,0.1038,12.695,10.2,18.0,1
126,395434.563,3872146.361,1.452,0.1022,12.77,0.1039,12.799,10.6,18.8,1
127,395434.637,3872146.291,1.471,0.1022,12.872,0.1041,12.903,11.0,19.4,1
128,395434.711,3872146.220,1.491,0.1022,12.974,0.1041,13.007,11.1,19.6,1
129,395434.786,3872146.150,1.512,0.1022,13.077,0.1042,13.111,11.2,19.8,1
130,395434.860,3872146.080,1.532,0.1022,13.179,0.1041,13.215,11.1,19.5,1
131,395434.934,3872146.010,1.552,0.1022,13.281,0.1042,13.32,11.3,20.0,1
132,395435.008,3872145.940,1.573,0.1022,13.383,0.1042,13.424,11.5,20.3,1
133,395435.083,3872145.870,1.593,0.1022,13.485,0.1041,13.528,11.2,19.7,1
134,395435.157,3872145.799,1.612,0.1022,13.587,0.104,13.632,10.7,19.0,1
135,395435.231,3872145.729,1.631,0.1022,13.69,0.1038,13.736,10.2,17.9,1
136,395435.305,3872145.659,1.649,0.1022,13.792,0.1037,13.839,10.0,17.6,1
137,395435.380,3872145.589,1.666,0.1022,13.894,0.1036,13.943,9.7,17.0,1
138,395435.454,3872145.519,1.682,0.1022,13.996,0.1034,14.046,8.8,15.5,1
139,395435.528,3872145.449,1.696,0.1022,14.098,0.1032,14.15,7.9,14.0,1
140,395435.602,3872145.379,1.709,0.1022,14.2,0.1029,14.253,7.1,12.4,1
141,395435.676,3872145.308,1.721,0.1022,14.302,0.1028,14.355,6.6,11.6,1
142,395435.751,3872145.238,1.732,0.1022,14.405,0.1028,14.458,6.3,11.0,1
143,395435.825,3872145.168,1.742,0.1022,14.507,0.1026,14.561,5.4,9.4,1
144,395435.899,3872145.098,1.75,0.1022,14.609,0.1025,14.663,4.8,8.4,1
145,395435.973,3872145.028,1.758,0.1022,14.711,0.1025,14.766,4.5,7.8,1
146,395436.048,3872144.958,1.766,0.1022,14.813,0.1024,14.868,4.3,7.4,1
147,395436.122,3872144.888,1.773,0.1022,14.915,0.1024,14.971,4.0,6.9,1
148,395436.196,3872144.817,1.779,0.1022,15.018,0.1024,15.073,3.5,6.2,1
149,395436.270,3872144.747,1.785,0.1022,15.12,0.1023,15.175,3.2,5.6,1
150,395436.345,3872144.677,1.791,0.1022,15.222,0.1023,15.278,3.2,5.6,1
151,395436.419,3872144.607,1.796,0.1022,15.324,0.1023,15.38,3.1,5.4,1
152,395436.493,3872144.537,1.801,0.1022,15.426,0.1023,15.482,2.9,5.1,1
153,395436.567,3872144.467,1.806,0.1022,15.528,0.1023,15.585,2.8,4.8,1
154,395436.642,3872144.396,1.811,0.1022,15.631,0.1023,15.687,2.6,4.5,1
155,395436.716,3872144.326,1.815,0.1022,15.733,0.1023,15.789,2.5,4.3,1
156,395436.790,3872144.256,1.819,0.1022,15.835,0.1022,15.891,2.4,4.1,1
157,395436.864,3872144.186,1.823,0.1022,15.937,0.1022,15.994,2.1,3.7,1
158,395436.938,3872144.116,1.826,0.1022,16.039,0.1022,16.096,1.9,3.2,1
159,395437.013,3872144.046,1.829,0.1022,16.141,0.1022,16.198,1.4,2.4,1
160,395437.087,3872143.976,1.831,0.1022,16.244,0.1022,16.3,1.2,2.2,1
161,395437.161,3872143.905,1.834,0.1022,16.346,0.1022,16.402,1.4,2.4,1
162,395437.235,3872143.835,1.836,0.1022,16.448,0.1022,16.504,1.2,2.1,1
163,395437.310,3872143.765,1.838,0.1022,16.55,0.1022,16.607,1.1,1.9,1
164,395437.384,3872143.695,1.84,0.1022,16.652,0.1022,16.709,1.1,1.9,1
165,395437.458,3872143.625,1.842,0.1022,16.754,0.1022,16.811,1.1,1.9,1
166,395437.532,3872143.555,1.844,0.1022,16.857,0.1022,16.913,1.2,2.2,1
167,395437.607,3872143.485,1.846,0.1022,16.959,0.1022,17.015,1.3,2.2,1
168,395437.681,3872143.414,1.849,0.1022,17.061,0.1022,17.118,1.3,2.3,1
169,395437.755,3872143.344,1.851,0.1022,17.163,0.1022,17.22,1.5,2.6,1
170,395437.829,3872143.274,1.854,0.1022,17.265,0.1022,17.322,1.4,2.5,1
171,395437.903,3872143.204,1.856,0.1022,17.367,0.1022,17.424,1.5,2.6,1
172,395437.978,3872143.134,1.859,0.1022,17.469,0.1022,17.526,1.7,3.0,1
173,395438.052,3872143.064,1.863,0.1022,17.572,0.1022,17.629,1.8,3.1,1
174,395438.126,3872142.994,1.866,0.1022,17.674,0.1022,17.731,1.9,3.3,1
175,395438.200,3872142.923,1.869,0.1022,17.776,0.1022,17.833,1.8,3.1,1
176,395438.275,3872142.853,1.872,0.1022,17.878,0.1022,17.935,1.6,2.9,1
177,395438.349,3872142.783,1.875,0.1022,17.98,0.1022,18.037,1.6,2.8,1
178,395438.423,3872142.713,1.877,0.1022,18.082,0.1022,18.14,1.3,2.3,1
179,395438.497,3872142.643,1.879,0.1022,18.185,0.1022,18.242,1.3,2.2,1
180,395438.572,3872142.573,1.881,0.1022,18.287,0.1022,18.344,1.1,2.0,1
181,395438.646,3872142.502,1.883,0.1022,18.389,0.1022,18.446,0.9,1.5,1
182,395438.720,3872142.432,1.885,0.1022,18.491,0.1022,18.548,0.8,1.4,1
183,395438.794,3872142.362,1.886,0.1022,18.593,0.1022,18.65,0.6,1.1,1
184,395438.868,3872142.292,1.886,0.1022,18.695,0.1022,18.753,0.5,0.8,1
185,395438.943,3872142.222,1.887,0.1022,18.798,0.1022,18.855,0.4,0.7,1
186,395439.017,3872142.152,1.888,0.1022,18.9,0.1022,18.957,0.4,0.8,1
187,395439.091,3872142.082,1.889,0.1022,19.002,0.1022,19.059,0.5,0.9,1
188,395439.165,3872142.011,1.889,0.1022,19.104,0.1022,19.161,0.0,0.0,1
189,395439.240,3872141.941,1.888,0.1022,19.206,0.1022,19.263,0.4,0.7,1
190,395439.314,3872141.871,1.887,0.1022,19.308,0.1022,19.366,0.5,0.9,1
191,395439.388,3872141.801,1.886,0.1022,19.411,0.1022,19.468,0.6,1.0,1
192,395439.462,3872141.731,1.885,0.1022,19.513,0.1022,19.57,0.4,0.7,1
193,395439.537,3872141.661,1.885,0.1022,19.615,0.1022,19.672,0.2,0.4,1
194,395439.611,3872141.591,1.885,0.1022,19.717,0.1022,19.774,0.2,0.3,1
195,395439.685,3872141.520,1.885,0.1022,19.819,0.1022,19.876,0.0,0.1,1
196,395439.759,3872141.450,1.885,0.1022,19.921,0.1022,19.979,0.3,0.5,1
197,395439.833,3872141.380,1.887,0.1022,20.023,0.1022,20.081,0.8,1.4,1
198,395439.908,3872141.310,1.889,0.1022,20.126,0.1022,20.183,1.2,2.1,1
199,395439.982,3872141.240,1.891,0.1022,20.228,0.1022,20.285,1.4,2.4,1
200,395440.056,3872141.170,1.894,0.1022,20.33,0.1022,20.387,1.5,2.6,1
201,395440.130,3872141.099,1.897,0.1022,20.432,0.1022,20.49,1.6,2.8,1
202,395440.205,3872141.029,1.9,0.1022,20.534,0.1022,20.592,1.6,2.7,1
203,395440.279,3872140.959,1.902,0.1022,20.636,0.1022,20.694,1.6,2.7,1
204,395440.353,3872140.889,1.905,0.1022,20.739,0.1022,20.796,1.5,2.6,1
205,395440.427,3872140.819,1.908,0.1022,20.841,0.1022,20.898,1.4,2.5,1
206,395440.502,3872140.749,1.91,0.1022,20.943,0.1022,21,1.3,2.3,1
207,395440.576,3872140.679,1.912,0.1022,21.045,0.1022,21.103,1.3,2.3,1
208,395440.650,3872140.608,1.914,0.1022,21.147,0.1022,21.205,1.1,1.9,1
209,395440.724,3872140.538,1.916,0.1022,21.249,0.1022,21.307,1.0,1.8,1
210,395440.799,3872140.468,1.918,0.1022,21.352,0.1022,21.409,1.0,1.7,1
211,395440.873,3872140.398,1.919,0.1022,21.454,0.1022,21.511,0.9,1.6,1
212,395440.947,3872140.328,1.921,0.1022,21.556,0.1022,21.614,0.9,1.6,1
213,395441.021,3872140.258,1.923,0.1022,21.658,0.1022,21.716,0.9,1.5,1
214,395441.095,3872140.188,1.924,0.1022,21.76,0.1022,21.818,0.8,1.3,1
215,395441.170,3872140.117,1.925,0.1022,21.862,0.1022,21.92,0.7,1.2,1
216,395441.244,3872140.047,1.926,0.1022,21.965,0.1022,22.022,0.5,0.9,1
217,395441.318,3872139.977,1.927,0.1022,22.067,0.1022,22.124,0.7,1.2,1
218,395441.392,3872139.907,1.928,0.1022,22.169,0.1022,22.227,0.7,1.2,1
219,395441.467,3872139.837,1.93,0.1022,22.271,0.1022,22.329,0.8,1.3,1
220,395441.541,3872139.767,1.932,0.1022,22.373,0.1022,22.431,1.0,1.7,1
221,395441.615,3872139.696,1.934,0.1022,22.475,0.1022,22.533,1.2,2.1,1
222,395441.689,3872139.626,1.936,0.1022,22.578,0.1022,22.635,1.5,2.7,1
223,395441.764,3872139.556,1.939,0.1022,22.68,0.1022,22.737,1.7,2.9,1
224,395441.838,3872139.486,1.943,0.1022,22.782,0.1022,22.84,1.8,3.2,1
225,395441.912,3872139.416,1.946,0.1022,22.884,0.1022,22.942,2.0,3.5,1
226,395441.986,3872139.346,1.95,0.1022,22.986,0.1022,23.044,1.9,3.3,1
227,395442.060,3872139.276,1.953,0.1022,23.088,0.1022,23.146,1.8,3.2,1
228,395442.135,3872139.205,1.956,0.1022,23.19,0.1022,23.249,1.5,2.6,1
229,395442.209,3872139.135,1.957,0.1022,23.293,0.1022,23.351,1.1,1.9,1
230,395442.283,3872139.065,1.959,0.1022,23.395,0.1022,23.453,0.9,1.6,1
231,395442.357,3872138.995,1.96,0.1022,23.497,0.1022,23.555,0.6,1.0,1
232,395442.432,3872138.925,1.961,0.1022,23.599,0.1022,23.657,0.4,0.6,1
233,395442.506,3872138.855,1.961,0.1022,23.701,0.1022,23.759,0.0,0.0,1
234,395442.580,3872138.785,1.96,0.1022,23.803,0.1022,23.862,0.3,0.4,1
235,395442.654,3872138.714,1.96,0.1022,23.906,0.1022,23.964,0.0,0.1,1
236,395442.729,3872138.644,1.96,0.1022,24.008,0.1022,24.066,0.0,0.0,1
237,395442.803,3872138.574,1.96,0.1022,24.11,0.1022,24.168,0.0,0.0,1
238,395442.877,3872138.504,1.96,0.1022,24.212,0.1022,24.27,0.1,0.2,1
239,395442.951,3872138.434,1.96,0.1022,24.314,0.1022,24.372,0.2,0.3,1
240,395443.025,3872138.364,1.96,0.1022,24.416,0.1022,24.475,0.0,0.0,1
241,395443.100,3872138.294,1.96,0.1022,24.519,0.1022,24.577,0.1,0.2,1
242,395443.174,3872138.223,1.96,0.1022,24.621,0.1022,24.679,0.3,0.4,1
243,395443.248,3872138.153,1.96,0.1022,24.723,0.1022,24.781,0.1,0.1,1
244,395443.322,3872138.083,1.96,0.1022,24.825,0.1022,24.883,0.1,0.2,1
245,395443.397,3872138.013,1.96,0.1022,24.927,0.1022,24.985,0.0,0.0,1
246,395443.471,3872137.943,1.961,0.1022,25.029,0.1022,25.087,0.2,0.4,1
247,395443.545,3872137.873,1.961,0.1022,25.132,0.1022,25.19,0.4,0.7,1
248,395443.619,3872137.802,1.962,0.1022,25.234,0.1022,25.292,0.5,0.8,1
249,395443.694,3872137.732,1.963,0.1022,25.336,0.1022,25.394,0.4,0.7,1
250,395443.768,3872137.662,1.964,0.1022,25.438,0.1022,25.496,0.4,0.8,1
251,395443.842,3872137.592,1.965,0.1022,25.54,0.1022,25.598,0.7,1.2,1
252,395443.916,3872137.522,1.966,0.1022,25.642,0.1022,25.7,0.8,1.5,1
253,395443.991,3872137.452,1.968,0.1022,25.744,0.1022,25.803,1.0,1.7,1
254,395444.065,3872137.382,1.97,0.1022,25.847,0.1022,25.905,1.1,1.9,1
255,395444.139,3872137.311,1.972,0.1022,25.949,0.1022,26.007,1.2,2.1,1
256,395444.213,3872137.241,1.975,0.1022,26.051,0.1022,26.109,1.5,2.7,1
257,395444.287,3872137.171,1.978,0.1022,26.153,0.1022,26.211,1.6,2.8,1
258,395444.362,3872137.101,1.981,0.1022,26.255,0.1022,26.314,1.7,3.0,1
259,395444.436,3872137.031,1.984,0.1022,26.357,0.1022,26.416,1.8,3.2,1
260,395444.510,3872136.961,1.987,0.1022,26.46,0.1022,26.518,1.8,3.1,1
261,395444.584,3872136.891,1.99,0.1022,26.562,0.1022,26.62,1.8,3.1,1
262,395444.659,3872136.820,1.993,0.1022,26.664,0.1022,26.722,1.6,2.7,1
263,395444.733,3872136.750,1.996,0.1022,26.766,0.1022,26.825,1.4,2.5,1
264,395444.807,3872136.680,1.998,0.1022,26.868,0.1022,26.927,1.2,2.2,1
265,395444.881,3872136.610,1.999,0.1022,26.97,0.1022,27.029,0.8,1.4,1
266,395444.956,3872136.540,2.001,0.1022,27.073,0.1022,27.131,0.7,1.2,1
267,395445.030,3872136.470,2.002,0.1022,27.175,0.1022,27.233,0.5,0.9,1
268,395445.104,3872136.399,2.002,0.1022,27.277,0.1022,27.336,0.5,0.9,1
269,395445.178,3872136.329,2.003,0.1022,27.379,0.1022,27.438,0.5,1.0,1
270,395445.252,3872136.259,2.004,0.1022,27.481,0.1022,27.54,0.6,1.1,1
271,395445.327,3872136.189,2.006,0.1022,27.583,0.1022,27.642,0.7,1.3,1
272,395445.401,3872136.119,2.007,0.1022,27.686,0.1022,27.744,0.8,1.4,1
273,395445.475,3872136.049,2.009,0.1022,27.788,0.1022,27.846,0.8,1.5,1
274,395445.549,3872135.979,2.011,0.1022,27.89,0.1022,27.949,1.1,1.9,1
275,395445.624,3872135.908,2.013,0.1022,27.992,0.1022,28.051,1.0,1.8,1
276,395445.698,3872135.838,2.014,0.1022,28.094,0.1022,28.153,1.0,1.8,1
277,395445.772,3872135.768,2.016,0.1022,28.196,0.1022,28.255,1.0,1.8,1
278,395445.846,3872135.698,2.018,0.1022,28.299,0.1022,28.357,1.0,1.8,1
279,395445.921,3872135.628,2.02,0.1022,28.401,0.1022,28.459,1.0,1.8,1
280,395445.995,3872135.558,2.022,0.1022,28.503,0.1022,28.562,1.0,1.7,1
281,395446.069,3872135.488,2.023,0.1022,28.605,0.1022,28.664,0.9,1.6,1
282,395446.143,3872135.417,2.025,0.1022,28.707,0.1022,28.766,0.8,1.5,1
283,395446.217,3872135.347,2.026,0.1022,28.809,0.1022,28.868,0.8,1.4,1
284,395446.292,3872135.277,2.028,0.1022,28.911,0.1022,28.97,0.9,1.6,1
